* Freq(Hz) SPL(dB)
20.750000 8.715
21.000000 8.717
21.250000 8.719
21.500000 8.721
21.750000 8.721
22.000000 8.722
22.250000 8.722
22.500000 8.721
22.750000 8.721
23.000000 8.722
23.250000 8.725
23.500000 8.726
23.750000 8.726
24.000000 8.724
24.250000 8.715
24.500000 8.698
24.750000 8.678
25.000000 8.658
25.250000 8.639
25.500000 8.621
25.750000 8.613
26.000000 8.608
26.250000 8.604
26.500000 8.603
26.750000 8.602
27.000000 8.602
27.250000 8.601
27.500000 8.601
27.750000 8.601
28.000000 8.601
28.250000 8.601
28.500000 8.602
28.750000 8.602
29.000000 8.602
29.250000 8.601
29.500000 8.601
29.750000 8.601
30.000000 8.601
30.250000 8.601
30.500000 8.602
30.750000 8.603
31.000000 8.603
31.250000 8.603
31.500000 8.602
31.750000 8.601
32.000000 8.597
32.250000 8.592
32.500000 8.587
32.750000 8.581
33.000000 8.575
33.250000 8.567
33.500000 8.560
33.750000 8.549
34.000000 8.538
34.250000 8.527
34.500000 8.517
34.750000 8.506
35.000000 8.497
35.250000 8.488
35.500000 8.482
35.750000 8.479
36.000000 8.478
36.250000 8.478
36.500000 8.478
36.750000 8.479
37.000000 8.480
37.250000 8.481
37.500000 8.482
37.750000 8.482
38.000000 8.482
38.250000 8.482
38.500000 8.482
38.750000 8.482
39.000000 8.482
39.250000 8.482
39.500000 8.482
39.750000 8.482
40.000000 8.481
40.250000 8.481
40.500000 8.481
40.750000 8.481
41.000000 8.481
41.250000 8.481
41.500000 8.481
41.750000 8.481
42.000000 8.483
42.250000 8.484
42.500000 8.485
42.750000 8.486
43.000000 8.486
43.250000 8.486
43.500000 8.485
43.750000 8.483
44.000000 8.481
44.250000 8.475
44.500000 8.468
44.750000 8.460
45.000000 8.452
45.250000 8.443
45.500000 8.434
45.750000 8.425
46.000000 8.415
46.250000 8.406
46.500000 8.397
46.750000 8.392
47.000000 8.387
47.250000 8.383
47.500000 8.378
47.750000 8.374
48.000000 8.369
48.250000 8.365
48.500000 8.360
48.750000 8.355
49.000000 8.348
49.250000 8.340
49.500000 8.331
49.750000 8.322
50.000000 8.313
50.250000 8.304
50.500000 8.295
50.750000 8.286
51.000000 8.277
51.250000 8.268
51.500000 8.259
51.750000 8.250
52.000000 8.242
52.250000 8.236
52.500000 8.229
52.750000 8.223
53.000000 8.217
53.250000 8.211
53.500000 8.205
53.750000 8.200
54.000000 8.194
54.250000 8.189
54.500000 8.184
54.750000 8.179
55.000000 8.174
55.250000 8.170
55.500000 8.165
55.750000 8.160
56.000000 8.156
56.250000 8.151
56.500000 8.146
56.750000 8.142
57.000000 8.137
57.250000 8.132
57.500000 8.127
57.750000 8.122
58.000000 8.116
58.250000 8.110
58.500000 8.104
58.750000 8.098
59.000000 8.092
59.250000 8.086
59.500000 8.079
59.750000 8.073
60.000000 8.066
60.250000 8.060
60.500000 8.053
60.750000 8.047
61.000000 8.040
61.250000 8.033
61.500000 8.026
61.750000 8.019
62.000000 8.012
62.250000 8.005
62.500000 7.998
62.750000 7.991
63.000000 7.983
63.250000 7.976
63.500000 7.969
63.750000 7.961
64.000000 7.954
64.250000 7.947
64.500000 7.940
64.750000 7.932
65.000000 7.925
65.250000 7.918
65.500000 7.911
65.750000 7.906
66.000000 7.901
66.250000 7.896
66.500000 7.891
66.750000 7.886
67.000000 7.881
67.250000 7.876
67.500000 7.870
67.750000 7.865
68.000000 7.859
68.250000 7.853
68.500000 7.846
68.750000 7.839
69.000000 7.831
69.250000 7.821
69.500000 7.810
69.750000 7.799
70.000000 7.788
70.250000 7.777
70.500000 7.766
70.750000 7.754
71.000000 7.743
71.250000 7.731
71.500000 7.719
71.750000 7.707
72.000000 7.695
72.250000 7.683
72.500000 7.672
72.750000 7.660
73.000000 7.648
73.250000 7.637
73.500000 7.627
73.750000 7.616
74.000000 7.606
74.250000 7.596
74.500000 7.587
74.750000 7.577
75.000000 7.567
75.250000 7.557
75.500000 7.548
75.750000 7.538
76.000000 7.529
76.250000 7.519
76.500000 7.510
76.750000 7.501
77.000000 7.491
77.250000 7.482
77.500000 7.473
77.750000 7.463
78.000000 7.453
78.250000 7.444
78.500000 7.434
78.750000 7.425
79.000000 7.416
79.250000 7.406
79.500000 7.397
79.750000 7.387
80.000000 7.378
80.250000 7.369
80.500000 7.359
80.750000 7.350
81.000000 7.341
81.250000 7.332
81.500000 7.322
81.750000 7.313
82.000000 7.304
82.250000 7.295
82.500000 7.286
82.750000 7.277
83.000000 7.269
83.250000 7.261
83.500000 7.253
83.750000 7.245
84.000000 7.237
84.250000 7.229
84.500000 7.221
84.750000 7.213
85.000000 7.204
85.250000 7.196
85.500000 7.188
85.750000 7.180
86.000000 7.172
86.250000 7.163
86.500000 7.155
86.750000 7.146
87.000000 7.137
87.250000 7.128
87.500000 7.118
87.750000 7.108
88.000000 7.097
88.250000 7.087
88.500000 7.077
88.750000 7.066
89.000000 7.056
89.250000 7.045
89.500000 7.035
89.750000 7.024
90.000000 7.013
90.250000 7.002
90.500000 6.991
90.750000 6.980
91.000000 6.969
91.250000 6.958
91.500000 6.947
91.750000 6.936
92.000000 6.924
92.250000 6.913
92.500000 6.901
92.750000 6.890
93.000000 6.878
93.250000 6.867
93.500000 6.855
93.750000 6.843
94.000000 6.830
94.250000 6.818
94.500000 6.806
94.750000 6.794
95.000000 6.781
95.250000 6.769
95.500000 6.756
95.750000 6.744
96.000000 6.731
96.250000 6.719
96.500000 6.706
96.750000 6.694
97.000000 6.681
97.250000 6.669
97.500000 6.656
97.750000 6.644
98.000000 6.632
98.250000 6.620
98.500000 6.608
98.750000 6.596
99.000000 6.584
99.250000 6.572
99.500000 6.560
99.750000 6.548
100.000000 6.536
100.250000 6.524
100.500000 6.512
100.750000 6.500
101.000000 6.489
101.250000 6.477
101.500000 6.465
101.750000 6.453
102.000000 6.441
102.250000 6.430
102.500000 6.418
102.750000 6.406
103.000000 6.395
103.250000 6.383
103.500000 6.372
103.750000 6.360
104.000000 6.349
104.250000 6.337
104.500000 6.326
104.750000 6.315
105.000000 6.304
105.250000 6.293
105.500000 6.281
105.750000 6.270
106.000000 6.259
106.250000 6.248
106.500000 6.237
106.750000 6.226
107.000000 6.215
107.250000 6.204
107.500000 6.193
107.750000 6.182
108.000000 6.171
108.250000 6.160
108.500000 6.149
108.750000 6.138
109.000000 6.126
109.250000 6.115
109.500000 6.104
109.750000 6.093
110.000000 6.082
110.250000 6.070
110.500000 6.059
110.750000 6.048
111.000000 6.036
111.250000 6.025
111.500000 6.013
111.750000 6.002
112.000000 5.990
112.250000 5.979
112.500000 5.967
112.750000 5.956
113.000000 5.944
113.250000 5.933
113.500000 5.921
113.750000 5.910
114.000000 5.898
114.250000 5.886
114.500000 5.875
114.750000 5.863
115.000000 5.851
115.250000 5.840
115.500000 5.828
115.750000 5.816
116.000000 5.804
116.250000 5.792
116.500000 5.781
116.750000 5.769
117.000000 5.757
117.250000 5.745
117.500000 5.733
117.750000 5.721
118.000000 5.709
118.250000 5.697
118.500000 5.685
118.750000 5.673
119.000000 5.661
119.250000 5.649
119.500000 5.637
119.750000 5.625
120.000000 5.613
120.250000 5.601
120.500000 5.589
120.750000 5.578
121.000000 5.566
121.250000 5.554
121.500000 5.542
121.750000 5.531
122.000000 5.519
122.250000 5.507
122.500000 5.496
122.750000 5.485
123.000000 5.474
123.250000 5.463
123.500000 5.452
123.750000 5.442
124.000000 5.431
124.250000 5.420
124.500000 5.409
124.750000 5.398
125.000000 5.388
125.250000 5.377
125.500000 5.366
125.750000 5.355
126.000000 5.344
126.250000 5.334
126.500000 5.323
126.750000 5.312
127.000000 5.301
127.250000 5.290
127.500000 5.279
127.750000 5.268
128.000000 5.257
128.250000 5.245
128.500000 5.234
128.750000 5.223
129.000000 5.212
129.250000 5.200
129.500000 5.188
129.750000 5.176
130.000000 5.164
130.250000 5.152
130.500000 5.140
130.750000 5.128
131.000000 5.116
131.250000 5.103
131.500000 5.091
131.750000 5.078
132.000000 5.066
132.250000 5.053
132.500000 5.041
132.750000 5.028
133.000000 5.015
133.250000 5.002
133.500000 4.989
133.750000 4.976
134.000000 4.963
134.250000 4.950
134.500000 4.937
134.750000 4.924
135.000000 4.910
135.250000 4.897
135.500000 4.884
135.750000 4.870
136.000000 4.857
136.250000 4.843
136.500000 4.829
136.750000 4.814
137.000000 4.799
137.250000 4.784
137.500000 4.768
137.750000 4.753
138.000000 4.738
138.250000 4.722
138.500000 4.707
138.750000 4.692
139.000000 4.676
139.250000 4.661
139.500000 4.646
139.750000 4.631
140.000000 4.616
140.250000 4.601
140.500000 4.586
140.750000 4.571
141.000000 4.556
141.250000 4.541
141.500000 4.527
141.750000 4.512
142.000000 4.498
142.250000 4.484
142.500000 4.469
142.750000 4.456
143.000000 4.442
143.250000 4.428
143.500000 4.415
143.750000 4.401
144.000000 4.388
144.250000 4.377
144.500000 4.367
144.750000 4.357
145.000000 4.347
145.250000 4.338
145.500000 4.328
145.750000 4.319
146.000000 4.310
146.250000 4.301
146.500000 4.292
146.750000 4.283
147.000000 4.275
147.250000 4.266
147.500000 4.258
147.750000 4.250
148.000000 4.241
148.250000 4.233
148.500000 4.225
148.750000 4.217
149.000000 4.209
149.250000 4.201
149.500000 4.193
149.750000 4.185
150.000000 4.178
150.250000 4.170
150.500000 4.162
150.750000 4.154
151.000000 4.146
151.250000 4.138
151.500000 4.130
151.750000 4.123
152.000000 4.115
152.250000 4.106
152.500000 4.097
152.750000 4.087
153.000000 4.078
153.250000 4.068
153.500000 4.058
153.750000 4.048
154.000000 4.039
154.250000 4.029
154.500000 4.019
154.750000 4.009
155.000000 3.999
155.250000 3.989
155.500000 3.979
155.750000 3.969
156.000000 3.959
156.250000 3.949
156.500000 3.939
156.750000 3.929
157.000000 3.919
157.250000 3.909
157.500000 3.899
157.750000 3.888
158.000000 3.878
158.250000 3.868
158.500000 3.858
158.750000 3.848
159.000000 3.837
159.250000 3.827
159.500000 3.817
159.750000 3.807
160.000000 3.796
160.250000 3.786
160.500000 3.776
160.750000 3.766
161.000000 3.755
161.250000 3.745
161.500000 3.735
161.750000 3.725
162.000000 3.714
162.250000 3.704
162.500000 3.694
162.750000 3.684
163.000000 3.674
163.250000 3.663
163.500000 3.653
163.750000 3.643
164.000000 3.633
164.250000 3.623
164.500000 3.613
164.750000 3.603
165.000000 3.593
165.250000 3.583
165.500000 3.573
165.750000 3.563
166.000000 3.553
166.250000 3.543
166.500000 3.533
166.750000 3.523
167.000000 3.513
167.250000 3.503
167.500000 3.493
167.750000 3.484
168.000000 3.474
168.250000 3.464
168.500000 3.455
168.750000 3.445
169.000000 3.436
169.250000 3.426
169.500000 3.417
169.750000 3.407
170.000000 3.398
170.250000 3.389
170.500000 3.381
170.750000 3.372
171.000000 3.363
171.250000 3.354
171.500000 3.346
171.750000 3.337
172.000000 3.328
172.250000 3.320
172.500000 3.311
172.750000 3.303
173.000000 3.294
173.250000 3.286
173.500000 3.277
173.750000 3.269
174.000000 3.261
174.250000 3.252
174.500000 3.244
174.750000 3.236
175.000000 3.227
175.250000 3.219
175.500000 3.211
175.750000 3.203
176.000000 3.195
176.250000 3.187
176.500000 3.179
176.750000 3.170
177.000000 3.162
177.250000 3.154
177.500000 3.146
177.750000 3.138
178.000000 3.130
178.250000 3.122
178.500000 3.114
178.750000 3.106
179.000000 3.098
179.250000 3.091
179.500000 3.083
179.750000 3.075
180.000000 3.067
180.250000 3.059
180.500000 3.051
180.750000 3.043
181.000000 3.035
181.250000 3.027
181.500000 3.019
181.750000 3.011
182.000000 3.003
182.250000 2.995
182.500000 2.987
182.750000 2.979
183.000000 2.971
183.250000 2.963
183.500000 2.956
183.750000 2.948
184.000000 2.940
184.250000 2.932
184.500000 2.924
184.750000 2.916
185.000000 2.908
185.250000 2.900
185.500000 2.893
185.750000 2.885
186.000000 2.877
186.250000 2.869
186.500000 2.861
186.750000 2.853
187.000000 2.846
187.250000 2.838
187.500000 2.830
187.750000 2.822
188.000000 2.814
188.250000 2.806
188.500000 2.799
188.750000 2.791
189.000000 2.783
189.250000 2.775
189.500000 2.767
189.750000 2.759
190.000000 2.751
190.250000 2.743
190.500000 2.735
190.750000 2.726
191.000000 2.718
191.250000 2.710
191.500000 2.702
191.750000 2.694
192.000000 2.686
192.250000 2.678
192.500000 2.670
192.750000 2.662
193.000000 2.653
193.250000 2.645
193.500000 2.637
193.750000 2.629
194.000000 2.621
194.250000 2.613
194.500000 2.605
194.750000 2.597
195.000000 2.589
195.250000 2.581
195.500000 2.573
195.750000 2.565
196.000000 2.557
196.250000 2.549
196.500000 2.541
196.750000 2.533
197.000000 2.526
197.250000 2.518
197.500000 2.510
197.750000 2.502
198.000000 2.494
198.250000 2.486
198.500000 2.479
198.750000 2.471
199.000000 2.463
199.250000 2.455
199.500000 2.448
199.750000 2.440
200.000000 2.433
200.250000 2.426
200.500000 2.418
200.750000 2.411
201.000000 2.404
201.250000 2.397
201.500000 2.390
201.750000 2.382
202.000000 2.375
202.250000 2.368
202.500000 2.361
202.750000 2.354
203.000000 2.347
203.250000 2.340
203.500000 2.333
203.750000 2.326
204.000000 2.319
204.250000 2.312
204.500000 2.305
204.750000 2.298
205.000000 2.291
205.250000 2.284
205.500000 2.277
205.750000 2.270
206.000000 2.263
206.250000 2.256
206.500000 2.249
206.750000 2.242
207.000000 2.235
207.250000 2.228
207.500000 2.221
207.750000 2.214
208.000000 2.208
208.250000 2.201
208.500000 2.194
208.750000 2.187
209.000000 2.180
209.250000 2.173
209.500000 2.167
209.750000 2.160
210.000000 2.153
210.250000 2.146
210.500000 2.139
210.750000 2.133
211.000000 2.126
211.250000 2.119
211.500000 2.112
211.750000 2.105
212.000000 2.098
212.250000 2.091
212.500000 2.083
212.750000 2.076
213.000000 2.069
213.250000 2.062
213.500000 2.055
213.750000 2.048
214.000000 2.041
214.250000 2.034
214.500000 2.027
214.750000 2.020
215.000000 2.013
215.250000 2.006
215.500000 1.999
215.750000 1.992
216.000000 1.985
216.250000 1.978
216.500000 1.971
216.750000 1.964
217.000000 1.957
217.250000 1.950
217.500000 1.944
217.750000 1.937
218.000000 1.930
218.250000 1.923
218.500000 1.916
218.750000 1.909
219.000000 1.902
219.250000 1.896
219.500000 1.889
219.750000 1.882
220.000000 1.875
220.250000 1.869
220.500000 1.862
220.750000 1.855
221.000000 1.849
221.250000 1.842
221.500000 1.835
221.750000 1.829
222.000000 1.822
222.250000 1.815
222.500000 1.809
222.750000 1.802
223.000000 1.796
223.250000 1.789
223.500000 1.783
223.750000 1.777
224.000000 1.770
224.250000 1.764
224.500000 1.757
224.750000 1.751
225.000000 1.745
225.250000 1.738
225.500000 1.732
225.750000 1.726
226.000000 1.720
226.250000 1.713
226.500000 1.707
226.750000 1.701
227.000000 1.695
227.250000 1.689
227.500000 1.683
227.750000 1.677
228.000000 1.671
228.250000 1.665
228.500000 1.659
228.750000 1.653
229.000000 1.647
229.250000 1.641
229.500000 1.635
229.750000 1.629
230.000000 1.624
230.250000 1.618
230.500000 1.612
230.750000 1.606
231.000000 1.601
231.250000 1.595
231.500000 1.589
231.750000 1.584
232.000000 1.578
232.250000 1.573
232.500000 1.567
232.750000 1.562
233.000000 1.556
233.250000 1.551
233.500000 1.545
233.750000 1.540
234.000000 1.535
234.250000 1.529
234.500000 1.524
234.750000 1.519
235.000000 1.514
235.250000 1.509
235.500000 1.504
235.750000 1.499
236.000000 1.494
236.250000 1.489
236.500000 1.485
236.750000 1.480
237.000000 1.476
237.250000 1.471
237.500000 1.467
237.750000 1.462
238.000000 1.458
238.250000 1.453
238.500000 1.449
238.750000 1.445
239.000000 1.440
239.250000 1.436
239.500000 1.432
239.750000 1.427
240.000000 1.423
240.250000 1.419
240.500000 1.415
240.750000 1.411
241.000000 1.406
241.250000 1.402
241.500000 1.398
241.750000 1.394
242.000000 1.390
242.250000 1.386
242.500000 1.382
242.750000 1.378
243.000000 1.374
243.250000 1.370
243.500000 1.366
243.750000 1.362
244.000000 1.358
244.250000 1.354
244.500000 1.350
244.750000 1.346
245.000000 1.343
245.250000 1.339
245.500000 1.335
245.750000 1.331
246.000000 1.327
246.250000 1.323
246.500000 1.319
246.750000 1.316
247.000000 1.312
247.250000 1.308
247.500000 1.304
247.750000 1.300
248.000000 1.297
248.250000 1.293
248.500000 1.289
248.750000 1.285
249.000000 1.281
249.250000 1.277
249.500000 1.274
249.750000 1.270
250.000000 1.266
250.250000 1.262
250.500000 1.258
250.750000 1.254
251.000000 1.250
251.250000 1.246
251.500000 1.242
251.750000 1.238
252.000000 1.234
252.250000 1.230
252.500000 1.226
252.750000 1.222
253.000000 1.218
253.250000 1.214
253.500000 1.211
253.750000 1.207
254.000000 1.203
254.250000 1.199
254.500000 1.195
254.750000 1.191
255.000000 1.187
255.250000 1.183
255.500000 1.179
255.750000 1.175
256.000000 1.172
256.250000 1.168
256.500000 1.164
256.750000 1.160
257.000000 1.156
257.250000 1.152
257.500000 1.148
257.750000 1.144
258.000000 1.141
258.250000 1.137
258.500000 1.133
258.750000 1.129
259.000000 1.125
259.250000 1.121
259.500000 1.117
259.750000 1.114
260.000000 1.110
260.250000 1.106
260.500000 1.102
260.750000 1.098
261.000000 1.094
261.250000 1.090
261.500000 1.087
261.750000 1.083
262.000000 1.079
262.250000 1.075
262.500000 1.071
262.750000 1.067
263.000000 1.063
263.250000 1.060
263.500000 1.056
263.750000 1.052
264.000000 1.048
264.250000 1.044
264.500000 1.040
264.750000 1.036
265.000000 1.032
265.250000 1.028
265.500000 1.024
265.750000 1.020
266.000000 1.016
266.250000 1.012
266.500000 1.009
266.750000 1.005
267.000000 1.001
267.250000 0.997
267.500000 0.993
267.750000 0.989
268.000000 0.985
268.250000 0.981
268.500000 0.977
268.750000 0.974
269.000000 0.970
269.250000 0.966
269.500000 0.962
269.750000 0.958
270.000000 0.954
270.250000 0.950
270.500000 0.947
270.750000 0.943
271.000000 0.939
271.250000 0.935
271.500000 0.931
271.750000 0.927
272.000000 0.924
272.250000 0.920
272.500000 0.916
272.750000 0.912
273.000000 0.909
273.250000 0.905
273.500000 0.901
273.750000 0.897
274.000000 0.893
274.250000 0.890
274.500000 0.886
274.750000 0.882
275.000000 0.878
275.250000 0.875
275.500000 0.871
275.750000 0.867
276.000000 0.864
276.250000 0.860
276.500000 0.856
276.750000 0.853
277.000000 0.849
277.250000 0.845
277.500000 0.842
277.750000 0.838
278.000000 0.834
278.250000 0.831
278.500000 0.827
278.750000 0.823
279.000000 0.820
279.250000 0.816
279.500000 0.812
279.750000 0.809
280.000000 0.805
280.250000 0.802
280.500000 0.798
280.750000 0.794
281.000000 0.791
281.250000 0.787
281.500000 0.784
281.750000 0.780
282.000000 0.777
282.250000 0.773
282.500000 0.770
282.750000 0.766
283.000000 0.763
283.250000 0.760
283.500000 0.756
283.750000 0.753
284.000000 0.749
284.250000 0.746
284.500000 0.743
284.750000 0.739
285.000000 0.736
285.250000 0.733
285.500000 0.729
285.750000 0.726
286.000000 0.723
286.250000 0.720
286.500000 0.716
286.750000 0.713
287.000000 0.710
287.250000 0.707
287.500000 0.704
287.750000 0.700
288.000000 0.697
288.250000 0.694
288.500000 0.691
288.750000 0.688
289.000000 0.685
289.250000 0.682
289.500000 0.679
289.750000 0.676
290.000000 0.673
290.250000 0.670
290.500000 0.667
290.750000 0.664
291.000000 0.661
291.250000 0.658
291.500000 0.656
291.750000 0.653
292.000000 0.650
292.250000 0.648
292.500000 0.645
292.750000 0.642
293.000000 0.640
293.250000 0.637
293.500000 0.635
293.750000 0.632
294.000000 0.630
294.250000 0.627
294.500000 0.625
294.750000 0.622
295.000000 0.620
295.250000 0.617
295.500000 0.615
295.750000 0.612
296.000000 0.610
296.250000 0.608
296.500000 0.605
296.750000 0.603
297.000000 0.600
297.250000 0.598
297.500000 0.596
297.750000 0.593
298.000000 0.591
298.250000 0.589
298.500000 0.586
298.750000 0.584
299.000000 0.582
299.250000 0.579
299.500000 0.577
299.750000 0.575
300.000000 0.572
300.250000 0.570
300.500000 0.568
300.750000 0.566
301.000000 0.563
301.250000 0.561
301.500000 0.559
301.750000 0.557
302.000000 0.555
302.250000 0.552
